% Version 1.00
%
%freq[Hz];db:Trc1_S21;ang:Trc1_S21;
4.000000000000000E+009,-2.628179843861001E+001,-9.178411480952512E+001,
4.003910068426198E+009,-2.563624557126163E+001,-1.051514012527415E+002,
4.007820136852395E+009,-2.501299051607214E+001,-1.202367008628282E+002,
4.011730205278593E+009,-2.458993275116830E+001,-1.354483515980694E+002,
4.015640273704790E+009,-2.394276013565773E+001,-1.511472394546205E+002,
4.019550342130987E+009,-2.329159329122448E+001,-1.676915416536873E+002,
4.023460410557185E+009,-2.278829954270311E+001,1.739621936232135E+002,
4.027370478983382E+009,-2.238181021104769E+001,1.562774805356445E+002,
4.031280547409580E+009,-2.193174631034772E+001,1.382258661736542E+002,
4.035190615835777E+009,-2.166309055401153E+001,1.199415268392026E+002,
4.039100684261975E+009,-2.150665791900452E+001,1.015890242697986E+002,
4.043010752688172E+009,-2.120430457629097E+001,8.480902075776156E+001,
4.046920821114369E+009,-2.084248659468235E+001,6.708399744581210E+001,
4.050830889540567E+009,-2.039267625319224E+001,4.838602878419082E+001,
4.054740957966765E+009,-2.006556932651158E+001,2.863775965442446E+001,
4.058651026392962E+009,-1.999561763428089E+001,8.382533324679311E+000,
4.062561094819160E+009,-2.012757057512186E+001,-1.010680197313614E+001,
4.066471163245357E+009,-2.002192939930140E+001,-2.786008858802396E+001,
4.070381231671554E+009,-1.995513122076563E+001,-4.701671377613471E+001,
4.074291300097752E+009,-1.997981943964194E+001,-6.585691196850557E+001,
4.078201368523949E+009,-2.010951351370607E+001,-8.445185520287610E+001,
4.082111436950147E+009,-2.022666788170794E+001,-1.012671705420027E+002,
4.086021505376344E+009,-2.013114939744065E+001,-1.186731816639400E+002,
4.089931573802542E+009,-2.005570744140077E+001,-1.357614989163076E+002,
4.093841642228739E+009,-1.983319716657815E+001,-1.542350106491068E+002,
4.097751710654936E+009,-1.980382741235571E+001,-1.728728715961947E+002,
4.101661779081134E+009,-1.977994787155739E+001,1.681699010946136E+002,
4.105571847507331E+009,-1.986443446485638E+001,1.489663859310456E+002,
4.109481915933529E+009,-2.012358338214611E+001,1.309190606029673E+002,
4.113391984359726E+009,-2.021772959624902E+001,1.133176689017613E+002,
4.117302052785924E+009,-2.035903818685898E+001,9.600737948452976E+001,
4.121212121212121E+009,-2.045784549613607E+001,7.932467794289528E+001,
4.125122189638319E+009,-2.045460676100899E+001,6.182776036106722E+001,
4.129032258064516E+009,-2.046854810511796E+001,4.505189234322764E+001,
4.132942326490714E+009,-2.028710594724743E+001,2.749606952305916E+001,
4.136852394916911E+009,-2.021295410354915E+001,9.563570437039562E+000,
4.140762463343109E+009,-2.013683542214226E+001,-9.238585628748204E+000,
4.144672531769306E+009,-2.023067656264196E+001,-2.831698244270936E+001,
4.148582600195503E+009,-2.040103647078503E+001,-4.730291858940935E+001,
4.152492668621701E+009,-2.069952276030512E+001,-6.515540978121049E+001,
4.156402737047898E+009,-2.087373432370189E+001,-8.155888840496732E+001,
4.160312805474096E+009,-2.093630880615523E+001,-9.824210823634763E+001,
4.164222873900293E+009,-2.085122286417106E+001,-1.152863326943460E+002,
4.168132942326491E+009,-2.083703611342015E+001,-1.340095552189162E+002,
4.172043010752688E+009,-2.102804774326767E+001,-1.519503802315540E+002,
4.175953079178886E+009,-2.119837303164505E+001,-1.702308520458828E+002,
4.179863147605083E+009,-2.156278426216941E+001,1.722929417471156E+002,
4.183773216031281E+009,-2.178228102432907E+001,1.566958613679064E+002,
4.187683284457478E+009,-2.182916778514978E+001,1.399824125400342E+002,
4.191593352883676E+009,-2.179420787030963E+001,1.236720341609918E+002,
4.195503421309873E+009,-2.180456691628251E+001,1.067393354547332E+002,
4.199413489736071E+009,-2.196787591827729E+001,9.093733920206341E+001,
4.203323558162268E+009,-2.176572693305660E+001,7.479817620654288E+001,
4.207233626588465E+009,-2.154874154986976E+001,5.719670696009801E+001,
4.211143695014663E+009,-2.145917262419920E+001,3.880553719516136E+001,
4.215053763440860E+009,-2.151251471491331E+001,2.010432468323608E+001,
4.218963831867058E+009,-2.180044241919534E+001,1.914347216999923E+000,
4.222873900293255E+009,-2.213372085675051E+001,-1.445449448939646E+001,
4.226783968719452E+009,-2.226322729654573E+001,-3.014547578082382E+001,
4.230694037145650E+009,-2.212328691831599E+001,-4.592965637657161E+001,
4.234604105571847E+009,-2.204570305571486E+001,-6.304932154234351E+001,
4.238514173998045E+009,-2.189772153588104E+001,-7.965728330910325E+001,
4.242424242424243E+009,-2.180103554664485E+001,-9.787624794185008E+001,
4.246334310850440E+009,-2.175906423674729E+001,-1.156975337130397E+002,
4.250244379276638E+009,-2.188704753735062E+001,-1.333499812315858E+002,
4.254154447702835E+009,-2.191651759181853E+001,-1.509306015878642E+002,
4.258064516129032E+009,-2.191690549757182E+001,-1.694927929927289E+002,
4.261974584555230E+009,-2.225994002217827E+001,1.717279015106040E+002,
4.265884652981427E+009,-2.270233365594316E+001,1.559384231182688E+002,
4.269794721407625E+009,-2.286588515111340E+001,1.419999521947947E+002,
4.273704789833822E+009,-2.263775461523770E+001,1.272062135890149E+002,
4.277614858260019E+009,-2.224288903694507E+001,1.114082318548476E+002,
4.281524926686217E+009,-2.194002314912802E+001,9.213176923415479E+001,
4.285434995112414E+009,-2.197223771590440E+001,7.398350648181800E+001,
4.289345063538612E+009,-2.203982995815450E+001,5.577424985865645E+001,
4.293255131964809E+009,-2.216853219100800E+001,3.762255220159936E+001,
4.297165200391007E+009,-2.234723644018310E+001,2.066343554802117E+001,
4.301075268817205E+009,-2.246180497135993E+001,3.825636694112702E+000,
4.304985337243402E+009,-2.269760500706314E+001,-1.269189836150864E+001,
4.308895405669600E+009,-2.270811132952517E+001,-2.788370728354159E+001,
4.312805474095797E+009,-2.255283490149168E+001,-4.324592845865209E+001,
4.316715542521994E+009,-2.222421681910694E+001,-5.867819913768474E+001,
4.320625610948192E+009,-2.181834267882543E+001,-7.800421404256984E+001,
4.324535679374389E+009,-2.195194428247344E+001,-9.736928393306543E+001,
4.328445747800587E+009,-2.205662705228583E+001,-1.145746979917482E+002,
4.332355816226784E+009,-2.205809135242173E+001,-1.319302199702647E+002,
4.336265884652982E+009,-2.211086601841592E+001,-1.494890829862239E+002,
4.340175953079179E+009,-2.211903051989330E+001,-1.661693175956592E+002,
4.344086021505377E+009,-2.215209981531617E+001,1.759961870824194E+002,
4.347996089931574E+009,-2.227096983595687E+001,1.589819432481035E+002,
4.351906158357771E+009,-2.218956369597017E+001,1.429170472125082E+002,
4.355816226783969E+009,-2.213487143031079E+001,1.250423976148449E+002,
4.359726295210166E+009,-2.210696702737472E+001,1.075577484926547E+002,
4.363636363636364E+009,-2.215291150220472E+001,9.049922669299833E+001,
4.367546432062561E+009,-2.210555894491058E+001,7.378280352308514E+001,
4.371456500488758E+009,-2.202659073932608E+001,5.676466842709139E+001,
4.375366568914956E+009,-2.187033426211178E+001,3.788199512222292E+001,
4.379276637341153E+009,-2.197678609584229E+001,1.927120989250564E+001,
4.383186705767351E+009,-2.218494010713443E+001,1.237548674946707E+000,
4.387096774193548E+009,-2.244339334803016E+001,-1.518941302910860E+001,
4.391006842619746E+009,-2.253995635147188E+001,-3.100774000409161E+001,
4.394916911045943E+009,-2.251879898587136E+001,-4.679368594442152E+001,
4.398826979472141E+009,-2.242711727149402E+001,-6.421806521336649E+001,
4.402737047898338E+009,-2.237689633667344E+001,-8.069029480552271E+001,
4.406647116324535E+009,-2.225585355390896E+001,-9.775591248959535E+001,
4.410557184750733E+009,-2.229645342377566E+001,-1.154424804567132E+002,
4.414467253176930E+009,-2.226950761077961E+001,-1.326182079716557E+002,
4.418377321603128E+009,-2.225122527943057E+001,-1.498925757038908E+002,
4.422287390029326E+009,-2.231707936292572E+001,-1.671662463563622E+002,
4.426197458455523E+009,-2.225336795928676E+001,1.756800521904330E+002,
4.430107526881721E+009,-2.245094502594558E+001,1.588025343201474E+002,
4.434017595307918E+009,-2.240979479889144E+001,1.423147744685703E+002,
4.437927663734116E+009,-2.237348265124241E+001,1.261820261209385E+002,
4.441837732160313E+009,-2.217979933755065E+001,1.093128734548934E+002,
4.445747800586511E+009,-2.217352350958257E+001,9.268623443716258E+001,
4.449657869012708E+009,-2.194828774922225E+001,7.532801273814087E+001,
4.453567937438905E+009,-2.190636471020402E+001,5.760883255696622E+001,
4.457478005865103E+009,-2.188056120889861E+001,3.920447009495022E+001,
4.461388074291300E+009,-2.204677744230170E+001,2.225580986845832E+001,
4.465298142717498E+009,-2.201906657106093E+001,5.783936712168686E+000,
4.469208211143695E+009,-2.183753120937798E+001,-1.153918610171136E+001,
4.473118279569893E+009,-2.187752190991085E+001,-2.963546431253698E+001,
4.477028347996090E+009,-2.188216026007654E+001,-4.666668938751592E+001,
4.480938416422287E+009,-2.192460524031262E+001,-6.389326543811357E+001,
4.484848484848485E+009,-2.194011296174440E+001,-8.017563822712810E+001,
4.488758553274682E+009,-2.183769658747904E+001,-9.592372168858969E+001,
4.492668621700880E+009,-2.158937690470251E+001,-1.131330171087339E+002,
4.496578690127077E+009,-2.142841016546576E+001,-1.317633261382944E+002,
4.500488758553275E+009,-2.146505011297349E+001,-1.497627933842780E+002,
4.504398826979472E+009,-2.152185019664576E+001,-1.670976421523954E+002,
4.508308895405669E+009,-2.155255748266931E+001,1.758064608719293E+002,
4.512218963831867E+009,-2.153674765934591E+001,1.592500181854226E+002,
4.516129032258064E+009,-2.149488003447750E+001,1.425655616316380E+002,
4.520039100684262E+009,-2.131161978447025E+001,1.247228157818160E+002,
4.523949169110459E+009,-2.125586899209942E+001,1.071745072333213E+002,
4.527859237536657E+009,-2.126010381203355E+001,8.945295301622001E+001,
4.531769305962854E+009,-2.131780286544361E+001,7.178918342824095E+001,
4.535679374389051E+009,-2.126422643820070E+001,5.446315676917493E+001,
4.539589442815249E+009,-2.117489339854995E+001,3.646962280770985E+001,
4.543499511241447E+009,-2.132328755640118E+001,1.865321603100403E+001,
4.547409579667645E+009,-2.135305568746609E+001,1.621387835382856E+000,
4.551319648093842E+009,-2.143616140295026E+001,-1.583031695464553E+001,
4.555229716520039E+009,-2.148868019427832E+001,-3.224644047115818E+001,
4.559139784946237E+009,-2.134577046828705E+001,-4.974980620506727E+001,
4.563049853372434E+009,-2.131301262895853E+001,-6.710734151984927E+001,
4.566959921798632E+009,-2.124064700140772E+001,-8.548489325159203E+001,
4.570869990224829E+009,-2.131394620651360E+001,-1.040127438958637E+002,
4.574780058651027E+009,-2.155521318016137E+001,-1.216779599849579E+002,
4.578690127077224E+009,-2.165959014749602E+001,-1.387922051486348E+002,
4.582600195503422E+009,-2.183389636420466E+001,-1.547237161800696E+002,
4.586510263929619E+009,-2.181078734263718E+001,-1.710705876814135E+002,
4.590420332355816E+009,-2.178949438437603E+001,1.726620545624127E+002,
4.594330400782014E+009,-2.176838337785109E+001,1.557394365270803E+002,
4.598240469208211E+009,-2.159044768639840E+001,1.388412284178246E+002,
4.602150537634409E+009,-2.148509945674618E+001,1.207610146408013E+002,
4.606060606060606E+009,-2.151265462439420E+001,1.034176028346321E+002,
4.609970674486803E+009,-2.141154212422432E+001,8.515952746407437E+001,
4.613880742913001E+009,-2.149219884590533E+001,6.728688792267293E+001,
4.617790811339198E+009,-2.158258145709561E+001,4.941887065066014E+001,
4.621700879765396E+009,-2.166652855402497E+001,3.190334596589087E+001,
4.625610948191593E+009,-2.178145848592038E+001,1.382647019205784E+001,
4.629521016617791E+009,-2.202405901909307E+001,-3.625832333643785E+000,
4.633431085043988E+009,-2.227630195771777E+001,-1.933711414066051E+001,
4.637341153470186E+009,-2.210676306046065E+001,-3.480211925551438E+001,
4.641251221896383E+009,-2.186650535888280E+001,-5.294380426951276E+001,
4.645161290322580E+009,-2.203309593142459E+001,-7.127973143726143E+001,
4.649071358748778E+009,-2.214248056375683E+001,-8.853066740880760E+001,
4.652981427174975E+009,-2.212668360406795E+001,-1.058461524783643E+002,
4.656891495601173E+009,-2.220887488265358E+001,-1.232428568647423E+002,
4.660801564027371E+009,-2.230430760989984E+001,-1.405728261720120E+002,
4.664711632453568E+009,-2.239440499818278E+001,-1.581723096270764E+002,
4.668621700879766E+009,-2.261033467428913E+001,-1.753733885810384E+002,
4.672531769305963E+009,-2.274005772916948E+001,1.680283933592284E+002,
4.676441837732161E+009,-2.281356327493949E+001,1.527178382711556E+002,
4.680351906158358E+009,-2.263843499700843E+001,1.357448533638216E+002,
4.684261974584556E+009,-2.266666428024047E+001,1.182549963833504E+002,
4.688172043010753E+009,-2.275294988501677E+001,1.012841840101437E+002,
4.692082111436951E+009,-2.278708116130156E+001,8.456381050814331E+001,
4.695992179863148E+009,-2.275720210639674E+001,6.699760225030744E+001,
4.699902248289345E+009,-2.274955034224823E+001,5.055985321371783E+001,
4.703812316715543E+009,-2.271062285798749E+001,3.246445016112399E+001,
4.707722385141740E+009,-2.288506812561710E+001,1.509423028173509E+001,
4.711632453567938E+009,-2.289616657384371E+001,-1.847862593216535E+000,
4.715542521994135E+009,-2.302446983404614E+001,-1.980026432113131E+001,
4.719452590420332E+009,-2.314355549254120E+001,-3.613404076293006E+001,
4.723362658846530E+009,-2.325240198937227E+001,-5.307892511825923E+001,
4.727272727272727E+009,-2.323280395992029E+001,-6.989618248917083E+001,
4.731182795698925E+009,-2.321900115754645E+001,-8.794481552352539E+001,
4.735092864125122E+009,-2.340415060327215E+001,-1.054906558031575E+002,
4.739002932551320E+009,-2.350177306627099E+001,-1.226360717672993E+002,
4.742913000977517E+009,-2.376009371806029E+001,-1.400616530833408E+002,
4.746823069403714E+009,-2.387662140309867E+001,-1.567972252079333E+002,
4.750733137829912E+009,-2.409409374590056E+001,-1.734171829694792E+002,
4.754643206256109E+009,-2.426718256322410E+001,1.698935254428624E+002,
4.758553274682307E+009,-2.445312013007067E+001,1.537903850005665E+002,
4.762463343108504E+009,-2.472011683390093E+001,1.373979836870497E+002,
4.766373411534702E+009,-2.492703965314261E+001,1.224074895938724E+002,
4.770283479960899E+009,-2.491665674521256E+001,1.081119416947853E+002,
4.774193548387096E+009,-2.464884423793270E+001,9.274383811579244E+001,
4.778103616813294E+009,-2.439922915599184E+001,7.548776034270534E+001,
4.782013685239492E+009,-2.436960764720377E+001,5.703482925573525E+001,
4.785923753665690E+009,-2.460560102380599E+001,3.806095288470825E+001,
4.789833822091887E+009,-2.505205244547036E+001,2.142053839338871E+001,
4.793743890518084E+009,-2.539035755836523E+001,5.835934455338713E+000,
4.797653958944282E+009,-2.570776187299073E+001,-9.164973918624261E+000,
4.801564027370479E+009,-2.585190561438960E+001,-2.233098523867915E+001,
4.805474095796677E+009,-2.581644852037721E+001,-3.661506457212369E+001,
4.809384164222874E+009,-2.555375784561937E+001,-5.187384919653889E+001,
4.813294232649072E+009,-2.555744479693930E+001,-6.746977109334608E+001,
4.817204301075269E+009,-2.530881678635819E+001,-8.254517710105208E+001,
4.821114369501467E+009,-2.500327499103268E+001,-9.918136581252362E+001,
4.825024437927664E+009,-2.485693770590665E+001,-1.172297506006324E+002,
4.828934506353861E+009,-2.515863045846203E+001,-1.348325626050312E+002,
4.832844574780059E+009,-2.516245572386583E+001,-1.496648538458566E+002,
4.836754643206256E+009,-2.522905554447451E+001,-1.656785685600486E+002,
4.840664711632454E+009,-2.518427306794293E+001,1.781746379998122E+002,
4.844574780058651E+009,-2.516977873097384E+001,1.628105309032783E+002,
4.848484848484848E+009,-2.513745333568908E+001,1.478810360516908E+002,
4.852394916911046E+009,-2.493493160583323E+001,1.329951192418639E+002,
4.856304985337243E+009,-2.447873224366530E+001,1.164324159398032E+002,
4.860215053763441E+009,-2.433376358457478E+001,9.926948990061260E+001,
4.864125122189638E+009,-2.401220392298566E+001,8.140973274746081E+001,
4.868035190615836E+009,-2.410435796659445E+001,6.331198576271072E+001,
4.871945259042033E+009,-2.422362470779628E+001,4.644950668140410E+001,
4.875855327468231E+009,-2.421702427116453E+001,3.054790751161053E+001,
4.879765395894428E+009,-2.411583273336330E+001,1.320876479673716E+001,
4.883675464320625E+009,-2.422825253142177E+001,-3.684537110511432E+000,
4.887585532746823E+009,-2.426594110112724E+001,-1.973416296858172E+001,
4.891495601173020E+009,-2.424077148968256E+001,-3.491270614759458E+001,
4.895405669599218E+009,-2.416122016595922E+001,-5.075966381605635E+001,
4.899315738025415E+009,-2.402941569526621E+001,-6.734707198549697E+001,
4.903225806451613E+009,-2.404519446941247E+001,-8.349840529475254E+001,
4.907135874877811E+009,-2.386418072980398E+001,-9.889093133467581E+001,
4.911045943304008E+009,-2.356717322923975E+001,-1.154750227008112E+002,
4.914956011730206E+009,-2.341446626547844E+001,-1.334005645395660E+002,
4.918866080156403E+009,-2.370089649762026E+001,-1.507791912142057E+002,
4.922776148582601E+009,-2.372678225063077E+001,-1.655706914742973E+002,
4.926686217008798E+009,-2.359920790575466E+001,1.790486117225255E+002,
4.930596285434996E+009,-2.352051761867000E+001,1.635882721933781E+002,
4.934506353861193E+009,-2.317568379178346E+001,1.483537997492482E+002,
4.938416422287390E+009,-2.281237044154300E+001,1.311066511181315E+002,
4.942326490713588E+009,-2.280582072888475E+001,1.133180640954482E+002,
4.946236559139785E+009,-2.277520577876035E+001,9.747595216949206E+001,
4.950146627565983E+009,-2.264903346558691E+001,8.183190455557519E+001,
4.954056695992180E+009,-2.233495630231889E+001,6.588973819314900E+001,
4.957966764418377E+009,-2.215817797963273E+001,4.968852201918420E+001,
4.961876832844575E+009,-2.186812087853411E+001,3.360919743216766E+001,
4.965786901270772E+009,-2.161136324264123E+001,1.685259439328411E+001,
4.969696969696970E+009,-2.133335920828575E+001,6.062117998907755E-001,
4.973607038123167E+009,-2.094787334291685E+001,-1.638184321133811E+001,
4.977517106549365E+009,-2.053184190484516E+001,-3.342697129615505E+001,
4.981427174975562E+009,-2.012567043570079E+001,-5.215565519513347E+001,
4.985337243401759E+009,-1.986538735200382E+001,-7.069056179501217E+001,
4.989247311827957E+009,-1.976144244250985E+001,-8.919486342885222E+001,
4.993157380254154E+009,-1.963743645271240E+001,-1.067893158561426E+002,
4.997067448680352E+009,-1.944050928135896E+001,-1.248029927894522E+002,
5.000977517106549E+009,-1.934158301308487E+001,-1.431065145981419E+002,
5.004887585532747E+009,-1.916143438439374E+001,-1.602796289322790E+002,
5.008797653958944E+009,-1.893532335614410E+001,-1.782665335428277E+002,
5.012707722385141E+009,-1.874621310231460E+001,1.633056906035538E+002,
5.016617790811339E+009,-1.858630053643290E+001,1.447015908351479E+002,
5.020527859237536E+009,-1.849672829020566E+001,1.257280691453283E+002,
5.024437927663734E+009,-1.843010380743360E+001,1.071079671651415E+002,
5.028347996089932E+009,-1.843609459239104E+001,8.883458631949806E+001,
5.032258064516129E+009,-1.847196380733958E+001,7.082479293964430E+001,
5.036168132942327E+009,-1.834466895146625E+001,5.293793500808234E+001,
5.040078201368524E+009,-1.827471977152311E+001,3.443250099288352E+001,
5.043988269794722E+009,-1.832567991091988E+001,1.519653985238954E+001,
5.047898338220919E+009,-1.850933524058245E+001,-2.590736129280049E+000,
5.051808406647117E+009,-1.854091126538713E+001,-1.950177262121403E+001,
5.055718475073314E+009,-1.846423096631584E+001,-3.682310757980857E+001,
5.059628543499512E+009,-1.838032359723749E+001,-5.476087824984619E+001,
5.063538611925709E+009,-1.833943727186620E+001,-7.294333523964001E+001,
5.067448680351906E+009,-1.837741352926186E+001,-9.090727367821475E+001,
5.071358748778104E+009,-1.830585811355351E+001,-1.089021198429158E+002,
